AccelTime,Position,Velocity,Acceleration
0.0,0.0001,0.0,0.0
0.01,0.0001,0.0,122.33418252093335
0.02,0.0001,1.2233418252093335,141.45561014950454
0.03,0.012333418252093335,2.6378979267043787,136.66500994423745
0.04,0.03871239751913712,4.004548026146753,136.64952005269407
0.05,0.07875787778060464,5.371043226673693,136.630972878302
0.06,0.13246831004734158,6.737352955456713,131.38954971464833
0.07,0.1998418396019087,8.051248452603197,131.35757027936194
0.08,0.2803543241279407,9.364824155396816,131.3184171572684
0.09,0.37400256568190887,10.6780083269695,131.2727255928917
0.1,0.4807826489516039,11.990735582898418,131.65142716178838
0.11,0.6006900047805881,13.307249854516302,131.6109786652718
0.12,0.7337625033257511,14.62335964116902,131.5343353741456
0.13,0.8799960997374413,15.938702994910477,131.4877986785223
0.14,1.0393831296865461,17.2535809816957,131.4219951646158
0.15,1.211918939503503,18.567800933341857,131.34477270199645
0.16,1.3975969488369215,19.881248660361823,131.26838949798156
0.17,1.5964094354405398,21.19393255534164,131.1972479608024
0.18,1.8083487609939561,22.505905034949663,131.09669382887498
0.19,2.033407811343453,23.816871973238413,131.02134220788682
0.2,2.271576531075837,25.12708539531728,128.09935059904308
0.21,2.52284738502901,26.40807890130771,127.98872717895786
0.22,2.786928174042087,27.68796617309729,127.88141282443863
0.23,3.06380783577306,28.96678030134168,127.76330167239311
0.24,3.3534756387864766,30.24441331806561,127.67483090581489
0.25,3.655919771967133,31.52116162712376,127.55011242562279
0.26,3.9711313882383705,32.79666275137999,123.27188949297857
0.27,4.29909801575217,34.02938164630978,123.17231400127292
0.28,4.639391832215268,35.26110478632251,123.0302233659156
0.29,4.992002880078493,36.491407019981665,122.27303295433907
0.3,5.356916950278309,37.71413734952505,122.13815200171304
0.31,5.73405832377356,38.935518869542186,123.932584908426
0.32,6.123413512468982,40.174844718626446,123.7887291939062
0.33,6.525161959655247,41.412732010565506,123.65719679147624
0.34,6.939289279760902,42.64930397848027,123.50732446379018
0.35,7.365782319545705,43.88437722311817,123.33424641261564
0.36,7.804626091776886,45.117719687244325,123.16406191498068
0.37,8.25580328864933,46.34936030639413,123.02193496654978
0.38,8.719296891713272,47.57957965605963,122.85507121079286
0.39,9.195092688273869,48.80813036816756,122.66667336472723
0.4,9.683173991955545,50.03479710181483,117.93630674631554
0.41,10.183521962973694,51.21416016927799,117.73809628218609
0.42,10.695663564666475,52.39154113209985,117.5709875074777
0.43,11.219578975987474,53.56725100717463,117.36628641627733
0.44,11.75525148605922,54.740913871337405,117.18644371928941
0.45,12.302660624772594,55.9127783085303,117.01125926412779
0.46,12.861788407857897,57.08289090117158,116.80555302274806
0.47,13.432617316869614,58.250946431399065,116.60944840036728
0.48,14.015126781183604,59.41704091540274,116.40759525241478
0.49,14.609297190337632,60.58111686792689,116.19854616093647
0.5,15.2151083590169,61.74310232953625,115.99287930403705
0.51,15.832539382312262,62.90303112257662,115.79403356165639
0.52,16.461569693538028,64.06097145819318,115.58936885123619
0.53,17.10217940811996,65.21686514670554,115.34094991477575
0.54,17.754348059587013,66.3702746458533,115.12924914441552
0.55,18.418050806045546,67.52156713729745,114.89787406099244
0.56,19.09326647741852,68.67054587790737,114.6609772391247
0.57,19.779971936197594,69.81715565029862,114.44766816760023
0.58,20.47814349270058,70.96163233197461,114.22393857641654
0.59,21.187759816020325,72.10387171773878,113.97326457765247
0.6,21.908798533197714,73.2436043635153,113.73067496552332
0.61,22.64123457683287,74.38091111317054,111.96340105157338
0.62,23.385043687964576,75.50054512368628,111.72808104572587
0.63,24.140049139201437,76.61782593414354,111.4692429555168
0.64,24.906227398542875,77.7325183636987,111.21831893368237
0.65,25.68355258217986,78.84470155303552,110.9691726474975
0.66,26.471999597710216,79.9543932795105,110.69936654713324
0.67,27.27154353050532,81.06138694498183,110.45715386547089
0.68,28.082157399955136,82.16595848363654,110.19531190936767
0.69,28.9038169847915,83.26791160273022,109.91326222477886
0.7,29.736496100818805,84.36704422497802,109.67179838194026
0.71,30.580166543068586,85.46376220879742,109.38525586487073
0.72,31.43480416515656,86.55761476744613,109.12738386976767
0.73,32.300380312831024,87.6488886061438,108.82967347231693
0.74,33.17686919889246,88.73718534086697,108.55746200932853
0.75,34.06424105230113,89.82275996096025,108.2784219254119
0.76,34.96246865191073,90.90554418021438,108.00021111371551
0.77,35.87152409371288,91.98554629135154,107.7072257931538
0.78,36.791379556626396,93.06261854928307,105.47407038442459
0.79,37.72200574211923,94.11735925312732,105.17576130360999
0.8,38.6631793346505,95.16911686616342,104.90062412151956
0.81,39.61487050331213,96.21812310737862,101.33402111051149
0.82,40.57705173438592,97.23146331848373,101.05316877335797
0.83,41.549366367570755,98.24199500621731,100.78228890458291
0.84,42.53178631763293,99.24981789526313,100.49148007858317
0.85,43.52428449658556,100.25473269604896,100.1989014693362
0.86,44.52683182354605,101.25672171074233,99.9181539632553
0.87,45.53939904065347,102.25590325037489,99.62740450619454
0.88,46.56195807315722,103.25217729543684,99.33132775034622
0.89,47.59447984611159,104.2454905729403,99.02993986656766
0.9,48.63693475184099,105.23578997160597,92.84824390397988
0.91,49.68929265155705,106.16427241064576,92.59136759156053
0.92,50.7509353756635,107.09018608656137,92.29217502219558
0.93,51.82183723652911,108.01310783678333,92.01765618825338
0.94,52.90196831489695,108.93328439866586,91.71104061526594
0.95,53.99130115888361,109.85039480481852,91.42672413780305
0.96,55.08980510693179,110.76466204619655,91.1494790846357
0.97,56.197451727393755,111.67615683704291,78.47632445604239
0.98,57.31421329576418,112.46092008160333,78.25286157791669
0.99,58.438822496580215,113.2434486973825,77.99011861185764
1.0,59.57125698355404,114.02334988350108,71.45482989879272
1.01,60.71149048238905,114.737898182489,71.20606601729764
1.02,61.858869464213946,115.44995884266199,70.98877304423644
1.03,63.01336905264056,116.15984657310435,65.53840090867608
1.04,64.1749675183716,116.8152305821911,65.32064723316144
1.05,65.34311982419351,117.46843705452272,65.11697171964545
1.06,66.51780419473873,118.11960677171918,61.4168356913946
1.07,67.69900026245593,118.73377512863313,61.214842586755026
1.08,68.88633801374226,119.34592355450067,61.00774407062805
1.09,70.07979724928727,119.95600099520695,60.78269546556145
1.1,71.27935725923933,120.56382794986257,60.58076575113479
1.11,72.48499553873796,121.16963560737392,9.898581878498542
1.12,73.6966918948117,121.2686214261589,9.855673198932015
1.13,74.9093781090733,121.36717815814822,9.840385804920137
1.14,76.12304989065478,121.46558201619742,9.785036655883655
1.15,77.33770571081676,121.56343238275625,9.769194762266311
1.16,78.55334003464432,121.66112433037891,9.748367100062612
1.17,79.76995127794811,121.75860800137954,-32.57678500996548
1.18,80.98753735796191,121.43284015127989,-32.46179248040305
1.19,82.20186575947471,121.10822222647586,-32.321048665415375
1.2,83.41294798173948,120.78501173982171,-32.19926045589169
1.21,84.6207980991377,120.4630191352628,-32.108364838081854
1.22,85.82542829049034,120.14193548688198,-31.971390474230866
1.23,87.02684764535915,119.82222158213966,-31.854220799705548
1.24,88.22506986118056,119.5036793741426,-31.72130413697152
1.25,89.42010665492198,119.1864663327729,-31.625387444506607
1.26,90.61197131824972,118.87021245832783,-31.492354888404407
1.27,91.80067344283299,118.55528890944379,-31.372237072870195
1.28,92.98622633192743,118.24156653871509,-31.26009674774365
1.29,94.16864199731458,117.92896557123765,-31.13747026335773
1.3,95.34793165302696,117.61759086860408,-31.02046403852682
1.31,96.52410756171301,117.30738622821882,-30.916092078153167
1.32,97.6971814239952,116.99822530743728,-30.80660106551175
1.33,98.86716367706957,116.69015929678217,-30.67821887649656
1.34,100.03406527003739,116.3833771080172,-30.563197137276646
1.35,101.19789904111757,116.07774513664444,-30.452827122561075
1.36,102.35867649248401,115.77321686541883,-30.347540369632444
1.37,103.5164086611382,115.4697414617225,-30.225649233786395
1.38,104.67110607575543,115.16748496938465,-30.10800452699674
1.39,105.82278092544928,114.86640492411468,-30.02435212112394
1.4,106.97144497469043,114.56616140290343,-29.923260106063513
1.41,108.11710658871947,114.2669288018428,-29.824148673447784
1.42,109.25977587673789,113.96868731510831,-29.71553106186333
1.43,110.39946274988897,113.67153200448968,-29.58487619541689
1.44,111.53617806993387,113.3756832425355,-29.484307255478
1.45,112.66993490235922,113.08084016998072,-29.366773361749374
1.46,113.80074330405903,112.78717243636322,-29.2822307565198
1.47,114.92861502842266,112.49435012879802,-29.186287112012177
1.48,116.05355852971064,112.2024872576779,-29.084562813165952
1.49,117.17558340228742,111.91164162954624,-28.95528186288114
1.5,118.29469981858288,111.62208881091743,-28.888925301587847
1.51,119.41092070669205,111.33319955790155,-28.77634862689915
1.52,120.52425270227107,111.04543607163257,-28.66889439294008
1.53,121.6347070629874,110.75874712770316,-28.593813669460566
1.54,122.74229453426443,110.47280899100855,-28.464134033425204
1.55,123.84702262417451,110.1881676506743,-28.356252750808626
1.56,124.94890430068126,109.90460512316622,-28.27354895315274
1.57,126.04795035191293,109.62186963363469,-28.164552597736172
1.58,127.14416904824928,109.34022410765732,-28.0874862500066
1.59,128.23757128932584,109.05934924515725,-28.005023022245773
1.6,129.32816478177742,108.7792990149348,-27.905785386963416
1.61,130.41595777192677,108.50024116106516,-27.808933144183346
1.62,131.50096018353742,108.22215182962333,-27.728616391500044
1.63,132.58318170183364,107.94486566570833,-27.61746490011673
1.64,133.66263035849073,107.66869101670717,-27.517222766254765
1.65,134.7393172686578,107.39351878904462,-27.43306122437526
1.66,135.81325245654824,107.11918817680086,-27.34674086477996
1.67,136.88444433831626,106.84572076815306,-27.226658695641202
1.68,137.95290154599778,106.57345418119665,-27.15698100280687
1.69,139.01863608780974,106.30188437116858,-27.054660433506996
1.7,140.08165493152143,106.03133776683352,-26.952734440271897
1.71,141.14196830918976,105.7618104224308,-26.875091848949722
1.72,142.19958641341407,105.4930595039413,-26.78232493977312
1.73,143.2545170084535,105.22523625454356,-26.69109378002287
1.74,144.30676937099892,104.95832531674333,-26.612682537532447
1.75,145.35635262416636,104.692198491368,-26.543937735299732
1.76,146.40327460908003,104.42675911401501,-26.44352583516162
1.77,147.44754220022017,104.1623238556634,-26.349841077997947
1.78,148.4891654387768,103.89882544488343,-26.261695911364644
1.79,149.52815369322565,103.63620848576979,-26.17689330016817
1.8,150.56451577808335,103.37443955276811,-26.109061657813694
1.81,151.59826017361104,103.11334893618998,-26.00701094655746
1.82,152.62939366297294,102.8532788267244,-25.937014878612413
1.83,153.6579264512402,102.59390867793829,-25.87143786767393
1.84,154.68386553801957,102.33519429926154,-25.754317202010263
1.85,155.70721748101218,102.07765112724144,-25.691995863432115
1.86,156.72799399228458,101.82073116860711,-25.59594014136521
1.87,157.74620130397065,101.56477176719346,-25.52529523748715
1.88,158.76184902164258,101.30951881481859,-25.458264472180502
1.89,159.77494420979076,101.05493617009678,-25.350808271806688
1.9,160.78549357149174,100.80142808737871,-25.304350071002364
1.91,161.79350785236554,100.54838458666869,-25.225090904437817
1.92,162.79899169823221,100.29613367762431,-25.12887193949251
1.93,163.80195303500847,100.04484495822939,-25.064993411089343
1.94,164.80240148459077,99.7941950241185,-24.9606511214131
1.95,165.80034343483197,99.54458851290437,-24.886925522143894
1.96,166.79578931996102,99.29571925768293,-24.82157198737769
1.97,167.78874651253784,99.04750353780915,-24.7286205854954
1.98,168.77922154791594,98.8002173319542,-24.667985345732514
1.99,169.76722372123547,98.55353747849688,-24.603263343705823
2.0,170.75275909602044,98.30750484505982,-24.517637225170542
2.01,171.73583414447103,98.06232847280812,-24.444019531495822
2.02,172.7164574291991,97.81788827749315,-24.373218392798204
2.03,173.69463631197402,97.57415609356516,-24.288621979822732
2.04,174.67037787290968,97.33126987376694,-24.236957644023622
2.05,175.64369057164734,97.0889002973267,-24.1680647469231
2.06,176.61457957462062,96.84721964985746,-24.074372489460636
2.07,177.5830517711192,96.60647592496287,-24.009518935220818
2.08,178.54911653036882,96.36638073561066,-23.930122521059616
2.09,179.51278033772493,96.12707951040007,-23.855063696142725
2.1,180.47405113282895,95.88852887343864,-23.768964742446073
2.11,181.43293642156334,95.65083922601418,-23.740089481395763
2.12,182.38944481382347,95.41343833120023,-23.6590755814825
2.13,183.34357919713548,95.1768475753854,-23.573684764647556
2.14,184.29534767288933,94.94111072773892,-23.50105219040864
2.15,185.24475878016673,94.70610020583483,-23.457880461598183
2.16,186.19181978222508,94.47152140121885,-23.358238414876777
2.17,187.13653499623726,94.23793901707009,-23.30890920464546
2.18,188.07891438640797,94.00484992502363,-23.22898488950247
2.19,189.0189628856582,93.77256007612861,-23.165178702231618
2.2,189.9566884864195,93.5409082891063,-23.107862249031367
2.21,190.89209756931055,93.30982966661598,-23.03646048254266
2.22,191.82519586597672,93.07946506179056,-22.96490249628797
2.23,192.75599051659464,92.84981603682768,-22.90459445839595
2.24,193.6844886769629,92.62077009224372,-22.83022549813976
2.25,194.61069637788535,92.39246783726232,-22.780190925595193
2.26,195.53462105625798,92.16466592800636,-22.727004626729045
2.27,196.45626771553805,91.93739588173906,-22.64042037007116
2.28,197.37564167435545,91.71099167803835,-22.566716244326358
2.29,198.29275159113584,91.4853245155951,-22.508285948486776
2.3,199.20760483629178,91.26024165611022,-22.450610291483542
2.31,200.12020725285288,91.0357355531954,-22.39031717104685
2.32,201.03056460838482,90.81183238148492,-22.333174315276274
2.33,201.93868293219967,90.58850063833215,-22.25130011181834
2.34,202.844567938583,90.36598763721396,-22.188185127741875
2.35,203.74822781495513,90.14410578593655,-22.122360390483653
2.36,204.6496688728145,89.92288218203171,-22.077188874630092
2.37,205.5488976946348,89.70211029328541,-22.00867429090381
2.38,206.44591879756766,89.48202355037638,-21.975824674826608
2.39,207.34073903307143,89.26226530362811,-21.897473254698955
2.4,208.2333616861077,89.04329057108112,-21.83784909482935
2.41,209.12379459181852,88.82491208013282,-21.782686488788208
2.42,210.01204371261986,88.60708521524494,-21.71453835026671
2.43,210.8981145647723,88.38993983174227,-21.67051059160945
2.44,211.78201396308972,88.17323472582618,-21.59034188524018
2.45,212.663746310348,87.95733130697377,-21.524536148889272
2.46,213.54331962341772,87.74208594548487,-21.487036558198522
2.47,214.42074048287256,87.52721557990289,-21.42049031543372
2.48,215.29601263867158,87.31301067674855,-21.347483561533103
2.49,216.16914274543907,87.09953584113322,-21.30041357260568
2.5,217.0401381038504,86.88653170540717,-21.235527265869276
2.51,217.90900342090447,86.67417643274847,-21.207348969447697
2.52,218.77574518523195,86.46210294305399,-21.126779414830736
2.53,219.6403662146625,86.25083514890568,-21.08627875164294
2.54,220.50287456615155,86.03997236138925,-21.0203934578444
2.55,221.36327428976543,85.8297684268108,-20.974896237696317
2.56,222.22157197403354,85.62001946443384,-20.912756151029413
2.57,223.07777216867788,85.41089190292354,-20.853509325044197
2.58,223.93188108770713,85.20235680967309,-20.81402248058886
2.59,224.78390465580387,84.9942165848672,-20.73557840368294
2.6,225.63384682165253,84.78686080083037,-20.696407542383742
2.61,226.48171542966082,84.57989672540653,-20.630417272767286
2.62,227.3275143969149,84.37359255267886,-20.592603815963155
2.63,228.1712503224417,84.16766651451923,-20.545672593747724
2.64,229.0129269875869,83.96220978858175,-20.49526800035206
2.65,229.8525490854727,83.75725710857823,-20.424551858169405
2.66,230.6901216565585,83.55301158999653,-20.386498134707523
2.67,231.52565177245845,83.34914660864945,-20.32281933001932
2.68,232.35914323854493,83.14591841534926,-20.270230349254447
2.69,233.19060242269842,82.94321611185671,-20.21450568681041
2.7,234.020034583817,82.74107105498861,-20.164050649058485
2.71,234.84744529436688,82.53943054849802,-20.122789391968777
2.72,235.67283959985187,82.33820265457832,-20.058020721153273
2.73,236.49622162639764,82.1376224473668,-20.012484597172534
2.74,237.31759785087132,81.93749760139507,-19.965507145868038
2.75,238.13697282688528,81.73784252993639,-19.917685660378947
2.76,238.95435125218464,81.5386656733326,-19.865413979619657
2.77,239.76973790891796,81.34001153353641,-19.807960829833828
2.78,240.58313802425332,81.14193192523807,-19.760686347561617
2.79,241.3945573435057,80.94432506176246,-19.71635669485081
2.8,242.20400059412333,80.74716149481395,-19.654437029527163
2.81,243.01147220907146,80.55061712451868,-19.627914665877185
2.82,243.81697838031664,80.35433797785991,-19.575041435098516
2.83,244.62052176009524,80.15858756350893,-19.52775926215564
2.84,245.42210763573033,79.96330997088738,-19.456365642134184
2.85,246.2217407354392,79.76874631446604,-19.415227052450575
2.86,247.01942819858385,79.57459404394153,-19.38208169617429
2.87,247.81517413902327,79.38077322697978,-19.317872899604588
2.88,248.60898187129305,79.18759449798374,-19.28052143777737
2.89,249.4008578162729,78.99478928360597,-19.236166805596397
2.9,250.19080570910896,78.80242761555,-19.184044224753396
2.91,250.97882998526447,78.61058717330246,-19.150148934974027
2.92,251.76493585699748,78.41908568395272,-19.100234255351214
2.93,252.549126713837,78.2280833413992,-19.054679814467285
2.94,253.331407547251,78.03753654325453,-19.006709115135372
2.95,254.11178291268354,77.84746945210318,-18.96249560913243
2.96,254.89025760720457,77.65784449601186,-18.904107125601513
2.97,255.66683605216468,77.46880342475585,-18.861776437352148
2.98,256.44152408641224,77.28018566038233,-18.831425558556262
2.99,257.2143259430161,77.09187140479676,-18.785071359083172
3.0,257.9852446570641,76.90402069120593,-18.744346456080294
3.01,258.7542848639761,76.71657722664513,-18.692118690093565
3.02,259.52145063624255,76.5296560397442,-18.642956116143722
3.03,260.28674719663996,76.34322647858276,-18.604641467659263
3.04,261.0501794614258,76.15718006390617,-18.577394984798563
3.05,261.81175126206483,75.97140611405818,-18.530573497929293
3.06,262.5714653232054,75.78610037907889,-18.473293962092093
3.07,263.3293263269962,75.60136743945797,-18.427017144400722
3.08,264.08534000139076,75.41709726801396,-18.39257307327591
3.09,264.8395109740709,75.23317153728121,-18.34524304184557
3.1,265.5918426894437,75.04971910686275,-18.31682185082839
3.11,266.3423398805123,74.86655088835447,-18.26734701822302
3.12,267.0910053893959,74.68387741817224,-18.217336290671053
3.13,267.8378441635776,74.50170405526553,-18.17166508996274
3.14,268.58286120413027,74.3199874043659,-18.12971344576497
3.15,269.32606107817395,74.13869026990825,-18.09353045427431
3.16,270.06744798087306,73.95775496536551,-18.058143908592807
3.17,270.8070255305267,73.77717352627958,-17.996981431510264
3.18,271.5447972657895,73.59720371196448,-17.975366496712006
3.19,272.28076930290916,73.41745004699736,-17.942504773015532
3.2,273.01494380337914,73.23802499926721,-17.897319324760673
3.21,273.7473240533718,73.05905180601961,-17.858365252523164
3.22,274.477914571432,72.88046815349438,-17.809671625354454
3.23,275.20671925296693,72.70237143724083,-17.77429591273025
3.24,275.93374296733936,72.52462847811353,-17.726966199354507
3.25,276.6589892521205,72.34735881611998,-17.705870593438522
3.26,277.3824628402817,72.1703001101856,-17.66304185158225
3.27,278.1041658413835,71.99366969166977,-17.630276162741005
3.28,278.8241025383002,71.81736693004235,-17.571293296367607
