AccelTime,Position,Velocity,Acceleration
0.0,0.0001,0.0,0.0
0.01,0.0001,0.0,122.33710990539771
0.02,0.0001,1.2233710990539772,141.4411318506385
0.03,0.012333710990539771,2.637782417560362,136.65045214322365
0.04,0.03871153516614339,4.004286938992598,136.65269194828883
0.05,0.07875440455606937,5.370813858475486,136.64271167313882
0.06,0.13246254314082423,6.737240975206874,131.3958111355908
0.07,0.199834952892893,8.051199086562782,131.3481743755893
0.08,0.2803469437585208,9.364680830318676,131.31281576661652
0.09,0.3739937520617076,10.677808987984841,131.28474889328447
0.1,0.480771841941556,11.990656476917685,131.6583753343643
0.11,0.6006784067107328,13.307240230261328,131.59340607020562
0.12,0.7337508090133461,14.623174290963384,131.55819201373652
0.13,0.8799825519229799,15.938756211100749,131.4808115271077
0.14,1.0393701140339875,17.253564326371826,131.41775544174786
0.15,1.2119057572977057,18.567741880789306,131.36460578215534
0.16,1.3975831761055988,19.88138793861086,131.24921852042428
0.17,1.5963970554917073,21.193880123815102,131.20973177738094
0.18,1.8083358567298584,22.50597744158891,131.1009436758911
0.19,2.0333956311457477,23.816986878347823,131.01833687659794
0.2,2.271565499929226,25.127170247113803,128.1008821380368
0.21,2.522837202400364,26.40817906849417,127.98953547100041
0.22,2.7869189930853056,27.688074423204174,127.90619899459355
0.23,3.063799737317347,28.967136413150108,127.78517857102199
0.24,3.3534711014488483,30.244988198860327,127.66536366748872
0.25,3.6559209834374515,31.521641835535213,127.54767024598283
0.26,3.9711374017928036,32.79711853799504,123.28997208781452
0.27,4.299108587172754,34.030018258873184,123.16695860485468
0.28,4.639408769761486,35.26168784492173,123.03823062619999
0.29,4.992025648210704,36.49207015118373,122.28283924875322
0.3,5.356946349722541,37.71489854367127,122.11506521758173
0.31,5.734095335159254,38.93604919584708,123.94024608307197
0.32,6.123455827117725,40.1754516566778,123.79014051350528
0.33,6.5252103436845035,41.413353061812856,123.64879299750024
0.34,6.939343874302632,42.64984099178786,123.49452422227368
0.35,7.365842284220511,43.8847862340106,123.33966138599212
0.36,7.804690146560617,45.11818284787052,123.17911037824618
0.37,8.255871975039323,46.349973951652984,123.02448585340267
0.38,8.719371714555853,47.58021881018701,122.82903007212579
0.39,9.195173902657723,48.80850911090827,122.64540371755928
0.4,9.683258993766806,50.03496314808386,117.93621587166474
0.41,10.183608625247645,51.21432530680051,117.74508461008226
0.42,10.69575187831565,52.391776152901336,117.56300052698042
0.43,11.219669639844664,53.56740615817114,117.37719732655384
0.44,11.755343701426375,54.741178131436676,117.21308275560035
0.45,12.302755482740741,55.91330895899268,117.01086952547932
0.46,12.861888572330669,57.08341765424747,116.80745164016834
0.47,13.432722748873143,58.25149217064915,116.60882620077277
0.48,14.015237670579635,59.41758043265688,116.41837184574882
0.49,14.609413474906205,60.58176415111436,116.21216436176574
0.5,15.215231116417348,61.74388579473202,115.98261712291556
0.51,15.832669974364668,62.90371196596118,115.77490978501264
0.52,16.46170709402428,64.06146106381131,115.56502261513852
0.53,17.102321704662394,65.21711128996269,115.34395782899641
0.54,17.75449281756202,66.37055086825265,115.14229452207492
0.55,18.418198326244546,67.5219738134734,114.90638387581548
0.56,19.09341806437928,68.67103765223155,114.65665931499986
0.57,19.780128440901596,69.81760424538155,114.44835177598468
0.58,20.478304483355412,70.9620877631414,114.21690793796736
0.59,21.187925360986828,72.10425684252107,113.96794731393064
0.6,21.90896792941204,73.24393631566038,113.72552095940631
0.61,22.641407292568644,74.38119152525444,111.95945972533595
0.62,23.385219207821187,75.50078612250779,111.70826967587293
0.63,24.140227069046265,76.61786881926652,111.45946691022253
0.64,24.90640575723893,77.73246348836875,111.23673305672236
0.65,25.683730392122616,78.84483081893598,110.97616178477286
0.66,26.472178700311975,79.9545924367837,110.71514372315089
0.67,27.271724624679813,81.0617438740152,110.43930727688314
0.68,28.082342063419965,82.16613694678404,110.21494089544083
0.69,28.904003432887805,83.26828635573844,109.92232862833734
0.7,29.73668629644519,84.36750964202182,109.64242871917835
0.71,30.580361392865406,85.4639339292136,109.40467791428645
0.72,31.43500073215754,86.55798070835647,109.11082061069746
0.73,32.3005805392411,87.64908891446345,108.83814246914551
0.74,33.17707142838574,88.7374703391549,108.56321523238572
0.75,34.06444613177729,89.82310249147875,108.28176988486169
0.76,34.962677156692074,90.90592019032736,108.00274254306376
0.77,35.87173635859535,91.98594761575801,107.7166893834817
0.78,36.79159583475293,93.06311450959282,105.477954764082
0.79,37.72222697984886,94.11789405723364,105.17742539576648
0.8,38.6634059204212,95.1696683111913,104.90327436721391
0.81,39.61510260353311,96.21870105486344,101.36373629558389
0.82,40.57728961408174,97.23233841781928,101.06687752951265
0.83,41.54961299825994,98.24300719311441,100.7820539368348
0.84,42.53204307019108,99.25082773248276,100.51180805685112
0.85,43.52455134751591,100.25594581305127,100.21250276432072
0.86,44.52711080564642,101.25807084069447,99.91063908316032
0.87,45.53969151405337,102.25717723152607,99.61557727770955
0.88,46.562263286368626,103.25333300430317,99.33211123662653
0.89,47.59479661641166,104.24665411666943,99.03037756871161
0.9,48.63726315757835,105.23695789235654,92.86976271382795
0.91,49.68963273650192,106.16565551949482,92.5803940040548
0.92,50.75128929169687,107.09145945953537,92.28934551147313
0.93,51.82220388629222,108.0143529146501,92.00283899158353
0.94,52.902347415438726,108.93438130456595,91.74117119272464
0.95,53.991691228484385,109.85179301649319,91.44800475682219
0.96,55.090209158649316,110.76627306406141,91.16210658235916
0.97,56.19787188928993,111.677894129885,78.50963525443409
0.98,57.314650830588775,112.46299048242935,78.24166775025367
0.99,58.43928073541307,113.24540715993189,77.98574741959253
1.0,59.57173480701239,114.02526463412781,71.44861893106031
1.01,60.71198745335367,114.73975082343841,71.19654064788398
1.02,61.859384961588056,115.45171622991725,70.98676333399808
1.03,63.01390212388723,116.16158386325723,65.54937938288434
1.04,64.1755179625198,116.81707765708607,65.33843969430384
1.05,65.34368873909067,117.47046205402911,65.1151814580331
1.06,66.51839335963096,118.12161386860944,61.41752424442107
1.07,67.69960949831706,118.73578911105365,61.20467271568921
1.08,68.8869673894276,119.34783583821054,60.975769274058415
1.09,70.0804457478097,119.95759353095113,60.806177196903725
1.1,71.28002168311922,120.56565530292016,60.58643135695809
1.11,72.48567823614842,121.17151961648975,9.89065664482307
1.12,73.69739343231332,121.27042618293798,9.855392135465491
1.13,74.91009769414269,121.36898010429263,9.806598512513572
1.14,76.12378749518562,121.46704608941776,9.79854878139751
1.15,77.33845795607981,121.56503157723174,9.778900693372114
1.16,78.55410827185213,121.66282058416546,9.726865648428253
1.17,79.77073647769379,121.76008924064975,-32.57464972946749
1.18,80.98833737010028,121.43434274335507,-32.463565540174336
1.19,82.20268079753383,121.10970708795332,-32.31963227326468
1.2,83.41377786841336,120.78651076522068,-32.22397962472498
1.21,84.62164297606557,120.46427096897344,-32.07667202503062
1.22,85.82628568575531,120.14350424872313,-31.957209141088846
1.23,87.02772072824254,119.82393215731224,-31.849392658891738
1.24,88.22596004981567,119.50543823072333,-31.714210876321495
1.25,89.4210144321229,119.18829612196011,-31.610185801704638
1.26,90.61289739334251,118.87219426394306,-31.481460918177515
1.27,91.80161933598194,118.55737965476128,-31.37387839975539
1.28,92.98719313252955,118.24364087076373,-31.25566719461643
1.29,94.16962954123719,117.93108419881756,-31.11525423690003
1.3,95.34894038322535,117.61993165644856,-31.043461075027725
1.31,96.52513969978985,117.30949704569828,-30.900860569540882
1.32,97.69823467024683,117.00048844000287,-30.78244394649787
1.33,98.86823955464686,116.69266400053789,-30.67336116877092
1.34,100.03516619465225,116.38593038885018,-30.579841467036406
1.35,101.19902549854075,116.08013197417982,-30.465002351409538
1.36,102.35982681828254,115.77548195066572,-30.329060912873103
1.37,103.5175816377892,115.47219134153698,-30.239134676772018
1.38,104.67230355120458,115.16979999476926,-30.14522574282929
1.39,105.82400155115226,114.86834773734097,-30.029449599347938
1.4,106.97268502852567,114.56805324134749,-29.914520240075078
1.41,108.11836556093915,114.26890803894673,-29.804347969422576
1.42,109.26105464132863,113.9708645592525,-29.70116086058715
1.43,110.40076328692115,113.67385295064663,-29.582072246857745
1.44,111.5375018164276,113.37803222817806,-29.47994734784332
1.45,112.67128213870939,113.08323275469962,-29.398212499382144
1.46,113.80211446625638,112.7892506297058,-29.27379574024983
1.47,114.93000697255344,112.49651267230331,-29.170646516003284
1.48,116.05497209927647,112.20480620714328,-29.067107952630376
1.49,117.1770201613479,111.91413512761697,-28.978464391089492
1.5,118.29616151262407,111.62435048370608,-28.864138643351815
1.51,119.41240501746113,111.33570909727257,-28.772974025525308
1.52,120.52576210843385,111.04797935701731,-28.659785952361254
1.53,121.63624190200403,110.7613814974937,-28.564888663731544
1.54,122.74385571697897,110.47573261085638,-28.47438461738343
1.55,123.84861304308754,110.19098876468254,-28.372884049391054
1.56,124.95052293073437,109.90725992418864,-28.2753927643252
1.57,126.04959552997626,109.62450599654538,-28.177090665040705
1.58,127.14584058994171,109.34273508989497,-28.097297665336207
1.59,128.23926794084068,109.06176211324161,-27.993217724752117
1.6,129.3298855619731,108.7818299359941,-27.886193836306433
1.61,130.41770386133305,108.50296799763103,-27.80036577171589
1.62,131.50273354130937,108.22496433991387,-27.698348996339575
1.63,132.5849831847085,107.94798084995047,-27.61082010081949
1.64,133.66446299320802,107.67187264894227,-27.52449719723438
1.65,134.74118171969744,107.39662767696993,-27.402848897731893
1.66,135.81514799646715,107.1225991879926,-27.3391647996139
1.67,136.88637398834706,106.84920753999647,-27.240352223758713
1.68,137.95486606374703,106.57680401775889,-27.14460693026528
1.69,139.02063410392464,106.30535794845623,-27.055769632948397
1.7,140.0836876834092,106.03480025212674,-26.976263320713684
1.71,141.14403568593048,105.7650376189196,-26.880478273469716
1.72,142.20168606211968,105.49623283618492,-26.804350408494916
1.73,143.25664839048153,105.22818933209997,-26.71470220703392
1.74,144.30893028380254,104.96104231002964,-26.614678085013175
1.75,145.35854070690283,104.6948955291795,-26.5406579713021
1.76,146.4054896621946,104.42948894946649,-26.473752949355205
1.77,147.44978455168928,104.16475141997293,-26.347275701188902
1.78,148.491432065889,103.90127866296105,-26.28735901239886
1.79,149.5304448525186,103.63840507283706,-26.178804399940113
1.8,150.56682890324697,103.37661702883766,-26.096007058343556
1.81,151.60059507353535,103.11565695825422,-26.019461099376567
1.82,152.6317516431179,102.85546234726046,-25.926487235393207
1.83,153.6603062665905,102.59619747490652,-25.846967861946077
1.84,154.68626824133958,102.33772779628706,-25.771218332522217
1.85,155.70964551930246,102.08001561296183,-25.68418429865715
1.86,156.73044567543207,101.82317376997526,-25.59165033128036
1.87,157.74867741313182,101.56725726666245,-25.527111354226108
1.88,158.76434998579845,101.31198615312019,-25.451106126491002
1.89,159.77746984732966,101.05747509185528,-25.360835170078513
1.9,160.7880445982482,100.80386674015449,-25.286445131584074
1.91,161.79608326564974,100.55100228883865,-25.204737303977122
1.92,162.80159328853813,100.29895491579887,-25.12668513554768
1.93,163.80458283769613,100.04768806444339,-25.042991612760932
1.94,164.80505971834057,99.79725814831578,-24.993993435875122
1.95,165.80303229982374,99.54731821395703,-24.923243951363517
1.96,166.7985054819633,99.2980857744434,-24.807088430522104
1.97,167.79148633970775,99.05001489013817,-24.738497838902557
1.98,168.78198648860914,98.80262991174915,-24.66578018170147
1.99,169.7700127877266,98.55597210993214,-24.59805608504992
2.0,170.75557250882594,98.30999154908164,-24.520547190743578
2.01,171.73867242431675,98.0647860771742,-24.433640219430465
2.02,172.7193202850885,97.8204496749799,-24.3724303337971
2.03,173.6975247818383,97.57672537164193,-24.280755783130882
2.04,174.6732920355547,97.33391781381061,-24.22134754555383
2.05,175.6466312136928,97.09170433835507,-24.15172876486537
2.06,176.61754825707635,96.85018705070642,-24.07083977913596
2.07,177.5860501275834,96.60947865291506,-24.00105409777567
2.08,178.55214491411255,96.3694681119373,-23.941667106078263
2.09,179.5158395952319,96.13005144087651,-23.858941964475754
2.1,180.4771401096407,95.89146202123176,-23.783281252906804
2.11,181.436054729853,95.6536292087027,-23.72696922607219
2.12,182.39259102194004,95.41635951644197,-23.648592797579713
2.13,183.34675461710447,95.17987358846618,-23.559779772893947
2.14,184.29855335298913,94.94427579073724,-23.510557785898047
2.15,185.2479961108965,94.70917021287826,-23.433366440669182
2.16,186.19508781302528,94.47483654847157,-23.3546147377978
2.17,187.13983617851,94.2412904010936,-23.30833415854042
2.18,188.08224908252092,94.0082070595082,-23.244087408480127
2.19,189.022331153116,93.7757661854234,-23.177953833229264
2.2,189.96008881497022,93.5439866470911,-23.110106233112017
2.21,190.89552868144114,93.31288558475998,-23.021800578530595
2.22,191.82865753728873,93.08266757897468,-22.978745524949765
2.23,192.75948421307848,92.85288012372519,-22.89630511737494
2.24,193.68801301431574,92.62391707255144,-22.83140951862661
2.25,194.61425218504127,92.39560297736517,-22.75482209837172
2.26,195.53820821481492,92.16805475638145,-22.713439917704505
2.27,196.45988876237874,91.9409203572044,-22.634564160788337
2.28,197.37929796595077,91.71457471559653,-22.573466472438646
2.29,198.29644371310673,91.48884005087214,-22.535127617978958
2.3,199.21133211361544,91.26348877469235,-22.431813809504195
2.31,200.12396700136236,91.0391706365973,-22.36435626026934
2.32,201.03435870772833,90.81552707399462,-22.305026297363508
2.33,201.94251397846827,90.59247681102099,-22.257707687482064
2.34,202.84843874657847,90.36989973414616,-22.19855945429041
2.35,203.75213774391992,90.14791413960326,-22.135999479705994
2.36,204.65361688531596,89.9265541448062,-22.07017187788798
2.37,205.55288242676403,89.70585242602732,-22.026049887502744
2.38,206.4499409510243,89.4855919271523,-21.94162789041783
2.39,207.34479687029582,89.26617564824812,-21.88182535978476
2.4,208.2374586267783,89.04735739465028,-21.829338266718562
2.41,209.1279322007248,88.82906401198309,-21.769585825595644
2.42,210.01622284084465,88.61136815372714,-21.71735931440795
2.43,210.90233652238192,88.39419456058306,-21.640296448355265
2.44,211.78627846798776,88.17779159609951,-21.585208010978224
2.45,212.66805638394874,87.96193951598973,-21.532162998769532
2.46,213.54767577910863,87.74661788600203,-21.470745088438342
2.47,214.42514195796866,87.53191043511764,-21.418002181723235
2.48,215.30046106231984,87.31773041330041,-21.376368644787686
2.49,216.17363836645285,87.10396672685253,-21.306474645787116
2.5,217.04467803372137,86.89090198039466,-21.24440339929992
2.51,217.9135870535253,86.67845794640166,-21.197046944827598
2.52,218.78037163298933,86.46648747695339,-21.135869175760718
2.53,219.64503650775887,86.25512878519578,-21.077645086428717
2.54,220.50758779561085,86.04435233433149,-21.022274504799
2.55,221.36803131895417,85.8341295892835,-20.944099873792393
2.56,222.226372614847,85.62468859054559,-20.903451449713003
2.57,223.08261950075246,85.41565407604845,-20.85507724215248
2.58,223.93677604151293,85.20710330362692,-20.796452165943553
2.59,224.7888470745492,84.99913878196749,-20.759131427588912
2.6,225.63883846236888,84.7915474676916,-20.690847497809482
2.61,226.4867539370458,84.58463899271351,-20.651783891993112
2.62,227.33260032697294,84.37812115379357,-20.590971435404875
2.63,228.17638153851087,84.17221143943952,-20.52624381783256
2.64,229.01810365290527,83.9669490012612,-20.501070376496376
2.65,229.8577731429179,83.76193829749623,-20.40883040884992
2.66,230.69539252589286,83.55784999340773,-20.37196274782562
2.67,231.53097102582694,83.35413036592948,-20.310412961263307
2.68,232.36451232948625,83.15102623631685,-20.270154018949796
2.69,233.1960225918494,82.94832469612736,-20.225482791355724
2.7,234.0255058388107,82.7460698682138,-20.17040428911554
2.71,234.85296653749282,82.54436582532264,-20.118896891261254
2.72,235.67841019574604,82.34317685641003,-20.075645616244223
2.73,236.50184196431013,82.14242040024759,-20.01629447136909
2.74,237.3232661683126,81.94225745553389,-19.974669918856307
2.75,238.14268874286796,81.74251075634533,-19.89996272016
2.76,238.9601138504314,81.54351112914372,-19.862125878095338
2.77,239.77554896172285,81.34488987036276,-19.81192341467613
2.78,240.58899786042647,81.146770636216,-19.784790465418713
2.79,241.40046556678863,80.94892273156182,-19.69977010109311
2.8,242.20995479410425,80.7519250305509,-19.657497812470876
2.81,243.01747404440977,80.55535005242618,-19.611417348172022
2.82,243.82302754493404,80.35923587894446,-19.565993778451386
2.83,244.62661990372348,80.16357594115995,-19.529946030308224
2.84,245.42825566313508,79.96827648085687,-19.465140311847176
2.85,246.22793842794366,79.7736250777384,-19.419557457373582
2.86,247.02567467872103,79.57942950316466,-19.37905072729784
2.87,247.82146897375267,79.38563899589168,-19.329664478728734
2.88,248.61532536371158,79.1923423511044,-19.279848082285113
2.89,249.4072487872226,78.99954387028156,-19.233791902789694
2.9,250.19724422592543,78.80720595125366,-19.18473094135053
2.91,250.98531628543796,78.61535864184016,-19.12416132682553
2.92,251.77146987185637,78.4241170285719,-19.106971427082016
2.93,252.5557110421421,78.23304731430107,-19.03915701025764
2.94,253.3380415152851,78.0426557441985,-19.030547186524956
2.95,254.1184680727271,77.85235027233325,-18.955445507706806
2.96,254.89699157545044,77.66279581725618,-18.91918192308229
2.97,255.673619533623,77.47360399802535,-18.882015739351996
2.98,256.44835557360324,77.28478384063183,-18.817195091058295
2.99,257.2212034120096,77.09661188972125,-18.771921826920398
3.0,257.9921695309068,76.90889267145204,-18.742014355710634
3.01,258.7612584576213,76.72147252789493,-18.688424753212303
3.02,259.52847318290026,76.53458828036281,-18.650843339927015
3.03,260.2938190657039,76.34807984696354,-18.60705640715046
3.04,261.0572998641735,76.16200928289204,-18.547316332958676
3.05,261.81891995700244,75.97653611956245,-18.51714705799789
3.06,262.57868531819804,75.79136464898248,-18.468159150029585
3.07,263.3365989646879,75.60668305748219,-18.422310305275523
3.08,264.0926657952627,75.42245995442943,-18.387167372055647
3.09,264.84689039480696,75.23858828070887,-18.342329185958672
3.1,265.599276277614,75.05516498884928,-18.306333504638484
3.11,266.34982792750253,74.8721016538029,-18.271372767713892
3.12,267.09854894404054,74.68938792612576,-18.21565685824595
3.13,267.8454428233018,74.5072313575433,-18.17430814108233
3.14,268.59051513687723,74.32548827613248,-18.156174558768818
3.15,269.33377001963856,74.14392653054479,-18.092513834631188
3.16,270.07520928494404,73.96300139219848,-18.050030748848297
3.17,270.81483929886605,73.78250108470999,-18.021446727972563
3.18,271.5526643097131,73.60228661743027,-17.9737211272605
3.19,272.28868717588745,73.42254940615766,-17.937750859960087
3.2,273.02291266994905,73.24317189755806,-17.906542232285112
3.21,273.75534438892464,73.0641064752352,-17.85219860799373
3.22,274.485985453677,72.88558448915526,-17.82634915471272
3.23,275.21484129856856,72.70732099760814,-17.781923950026727
3.24,275.94191450854464,72.52950175810787,-17.748305687319007
3.25,276.6672095261257,72.35201870123468,-17.688785256181973
3.26,277.39072971313806,72.17513084867286,-17.645867898954634
3.27,278.1124810216248,71.99867216968332,-17.62668291641032
