AccelTime,Position,Velocity,Acceleration
0.0,0.0001,0.0,0.0
0.01,0.0001,0.0,60.605031790519654
0.02,0.0001,0.6060503179051966,60.61187193785741
0.03,0.006160503179051966,1.2121690372837706,60.610272188435154
0.04,0.01828219355188967,1.8182717591681221,60.61000892401377
0.05,0.036464911143570894,2.42437184840826,60.60538809039371
0.06,0.0607086296276535,3.030425729312197,60.60444844616717
0.07,0.09101288692077547,3.636470213773869,60.60168957577328
0.08,0.12737758905851415,4.242487109531602,60.58982524785074
0.09,0.16980246015383016,4.848385362010109,60.580615997174505
0.1,0.21828631377393126,5.454191521981855,60.5801318304535
0.11,0.2728282289937498,6.05999284028639,60.56281365749665
0.12,0.3334281573966137,6.665620976861357,60.557076352031295
0.13,0.4000843671652273,7.27119174038167,60.54454339134876
0.14,0.472796284569044,7.8766371742951575,111.7237300560284
0.15,0.5515626563119955,8.993874474855442,111.68603506057919
0.16,0.64150140106055,10.110734825461234,111.65432722425444
0.17,0.7426087493151623,11.22727809770378,111.62305921790029
0.18,0.8548815302922002,12.343508689882782,111.59589542392285
0.19,0.978316617191028,13.459467644122011,111.54505722051643
0.2,1.112911293632248,14.574918216327175,111.49982677889817
0.21,1.2586604757955198,15.689916484116157,111.45135322432039
0.22,1.4155596406366813,16.804430016359362,111.40769826795268
0.23,1.583603940800275,17.91850699903889,108.19043873842362
0.24,1.7627890107906639,19.000411386423124,108.13735944556605
0.25,1.952793124654895,20.081784980878783,108.07095718768524
0.26,2.153610974463683,21.162494552755636,108.02509479623404
0.27,2.3652359199912394,22.242745500717977,107.95142805373811
0.28,2.587663374998419,23.322259781255358,107.88731492458854
0.29,2.8208859728109728,24.401132930501245,107.82907140191601
0.3,3.0648973021159853,25.479423644520406,107.75367716102036
0.31,3.319691538561189,26.556960416130607,107.66787290156904
0.32,3.585261142722495,27.633639145146297,107.38959908735578
0.33,3.861597534173958,28.707535136019857,107.28200322323248
0.34,4.148672885534157,29.780355168252182,107.20097139008956
0.35,4.4464764372166785,30.85236488215308,107.13587486554273
0.36,4.755000086038209,31.923723630808507,107.0173298676106
0.37,5.074237322346295,32.99389692948461,106.93550109239719
0.38,5.404176291641141,34.063251940408584,106.86791082153238
0.39,5.744808811045227,35.131931048623905,106.73349110762729
0.4,6.096128121531466,36.19926595970018,106.63856892138486
0.41,6.458120781128468,37.26565164891402,106.63603362902633
0.42,6.830777297617608,38.33201198520429,106.53710280184956
0.43,7.2140974174696515,39.397383013222786,106.42711689421265
0.44,7.608071247601879,40.461654182164914,106.32038352237016
0.45,8.012687789423529,41.52485801738862,106.20774442127912
0.46,8.427936369597415,42.586935461601406,106.09574081014016
0.47,8.853805724213428,43.64789286970281,105.97527534399305
0.48,9.290284652910456,44.70764562314274,105.8284060871094
0.49,9.737361109141883,45.765929684013834,105.70577191838423
0.5,10.19502040598202,46.82298740319768,105.56974000716087
0.51,10.663250280013997,47.87868480326929,106.17523456125126
0.52,11.14203712804669,48.9404371488818,106.05596758736483
0.53,11.631441499535509,50.00099682475545,105.91406843042208
0.54,12.131451467783062,51.060137509059665,105.7518709651101
0.55,12.642052842873658,52.11765621871076,105.62561602907756
0.56,13.163229405060767,53.173912379001536,105.46783126923135
0.57,13.694968528850781,54.228590691693846,105.3300822482295
0.58,14.237254435767719,55.28189151417614,105.18590953165705
0.59,14.79007335090948,56.33375060949271,105.01966020328334
0.6,15.353410857004407,57.383947211525545,105.60739000026749
0.61,15.927250329119662,58.44002111152822,105.45324901390359
0.62,16.511650540234946,59.494553601667256,105.2794061314316
0.63,17.10659607625162,60.54734766298157,105.1153812584985
0.64,17.712069552881434,61.59850147556656,104.9314356787811
0.65,18.3280545676371,62.64781583235437,104.75734900103687
0.66,18.954532725960643,63.69538932236474,104.60972375005663
0.67,19.59148661918429,64.74148655986531,104.43183260761244
0.68,20.238901484782943,65.78580488594143,104.25117692226475
0.69,20.896759533642356,66.82831665516407,105.51092989121818
0.7,21.565042700194,67.88342595407626,105.33147546686074
0.71,22.243876959734763,68.93674070874486,105.13665865816725
0.72,22.933244366822212,69.98810729532654,104.93343628592561
0.73,23.633125439775476,71.0374416581858,104.75757565585269
0.74,24.343499856357333,72.08501741474433,104.55573357081154
0.75,25.064350030504777,73.13057475045244,104.35809596024478
0.76,25.7956557780093,74.17415571005489,104.157366752252
0.77,26.53739733510985,75.2157293775774,103.93563392115
0.78,27.289554628885625,76.2550857167889,105.13108773107035
0.79,28.052105486053513,77.3063965940996,104.91601806276994
0.8,28.82516945199451,78.35555677472729,104.70690590474226
0.81,29.608725019741783,79.4026258337747,104.49407533345534
0.82,30.40275127807953,80.44756658710926,104.25991747245212
0.83,31.207226943950623,81.49016576183378,104.05296764284766
0.84,32.02212860156896,82.53069543826226,103.84407674341922
0.85,32.847435555951584,83.56913620569645,103.59157209456419
0.86,33.68312691800855,84.60505192664209,103.37304285623846
0.87,34.52917743727497,85.63878235520447,103.69561372448649
0.88,35.385565260827015,86.67573849244934,103.4594168733612
0.89,36.252322645751505,87.71033266118295,103.22047606216329
0.9,37.129425972363336,88.74253742180458,102.99810975077442
0.91,38.01685134658138,89.77251851931233,102.74884898424376
0.92,38.91457653177451,90.80000700915477,102.51097862222362
0.93,39.822576601866054,91.825116795377,102.27859983738381
0.94,40.74082776981982,92.84790279375083,102.02106297633918
0.95,41.66930679775733,93.86811342351423,101.79329825014857
0.96,42.60798793199247,94.88604640601572,101.6035640950333
0.97,43.55684839605263,95.90208204696606,101.34362720008845
0.98,44.51586921652229,96.91551831896695,101.08159454756469
0.99,45.48502439971196,97.92633426444259,100.8358561346629
1.0,46.46428774235638,98.93469282578921,100.57096949387186
1.01,47.45363467061428,99.94040252072793,100.33567647035726
1.02,48.453038695821554,100.9437592854315,100.06457534015303
1.03,49.462476288675866,101.94440503883303,99.78617829749182
1.04,50.481920339064196,102.94226682180795,99.51671851920153
1.05,51.51134300728228,103.93743400699996,99.01929810348118
1.06,52.550717347352276,104.92762698803477,98.77649909875088
1.07,53.59999361723262,105.91539197902229,98.49360007038418
1.08,54.65914753702285,106.90032797972613,98.2358960646657
1.09,55.728150816820104,107.88268694037279,97.96366735883727
1.1,56.80697768622383,108.86232361396117,97.68328630364138
1.11,57.89560092236344,109.83915647699757,97.39437247296644
1.12,58.99399248713342,110.81310020172724,97.12721139412388
1.13,60.10212348915069,111.78437231566848,96.8522032769712
1.14,61.219967212307374,112.75289434843819,96.58411531746732
1.15,62.34749615579175,113.71873550161287,95.69259808352032
1.16,63.48468351080788,114.67566148244808,95.4162946509403
1.17,64.63144012563237,115.62982442895748,95.13607541197901
1.18,65.78773836992194,116.58118518307727,94.85849125362252
1.19,66.9535502217527,117.52977009561349,94.57753837124054
1.2,68.12884792270884,118.47554547932589,94.27725419945037
1.21,69.3136033775021,119.41831802132039,94.00022195680309
1.22,70.5077865577153,120.35832024088842,93.70564597993851
1.23,71.71136976012419,121.2953767006878,93.42048298568137
1.24,72.92432352713107,122.2295815305446,91.10750885050541
1.25,74.14661934243651,123.14065661904966,90.81883171085987
1.26,75.37802590862701,124.04884493615826,90.5344183768976
1.27,76.61851435798859,124.95418911992724,90.23189880472336
1.28,77.86805624918786,125.85650810797446,89.94692152668483
1.29,79.1266213302676,126.75597732324131,89.67275082167332
1.3,80.3941811035,127.65270483145804,89.36325391304025
1.31,81.67070815181458,128.54633737058845,89.07811747009781
1.32,82.95617152552046,129.43711854528942,88.77554089577552
1.33,84.25054271097335,130.32487395424718,87.47513144668119
1.34,85.55379145051582,131.199625268714,87.2017419153096
1.35,86.86578770320295,132.0716426878671,86.90705399722054
1.36,88.18650413008163,132.9407132278393,86.59452283400176
1.37,89.51591126236002,133.80665845617932,86.31570982737925
1.38,90.85397784692181,134.66981555445312,86.01917001063983
1.39,92.20067600246634,135.53000725455954,85.72766380409772
1.4,93.55597607501193,136.38728389260052,85.42190067437836
1.41,94.91984891393793,137.2415028993443,85.11956208544176
1.42,96.29226394293137,138.09269852019872,82.35180464499877
1.43,97.67319092813335,138.9162165666487,82.05943524880972
1.44,99.06235309379984,139.7368109191368,81.77684594755677
1.45,100.4597212029912,140.55457937861235,81.50149813653971
1.46,101.86526699677732,141.36959435997775,81.20356410539694
1.47,103.2789629403771,142.18163000103172,80.9134988592154
1.48,104.70077924038742,142.99076498962387,80.61680488520379
1.49,106.13068689028366,143.7969330384759,80.32958222198769
1.5,107.56865622066842,144.60022886069578,80.02144536827348
1.51,109.01465850927538,145.40044331437852,77.74116558672415
1.52,110.46866294241916,146.17785497024576,77.47447573803393
1.53,111.93044149212162,146.9525997276261,77.18889594257092
1.54,113.39996748939788,147.7244886870518,76.88920208488042
1.55,114.8772123762684,148.4933807079006,76.60285200480367
1.56,116.3621461833474,149.25940922794862,76.30420281334573
1.57,117.8547402756269,150.0224512560821,76.04514207642073
1.58,119.35496478818771,150.7829026768463,75.73281464850832
1.59,120.86279381495618,151.5402308233314,75.45416061031241
1.6,122.3781961231895,152.29477242943452,72.16271523827191
1.61,123.90114384748384,153.01639958181724,71.90298477458612
1.62,125.43130784330201,153.7354294295631,71.60113098773054
1.63,126.96866213759763,154.45144073944041,71.32716241244557
1.64,128.51317654499204,155.16471236356486,71.06088916079194
1.65,130.0648236686277,155.8753212551728,70.79494336308582
1.66,131.62357688117942,156.58327068880365,70.50929098832498
1.67,133.18940958806746,157.2883635986869,70.2271954641767
1.68,134.76229322405433,157.99063555332867,69.94538094250885
1.69,136.34219957958763,158.69008936275375,66.4810709072323
1.7,137.92910047321516,159.35490007182608,66.20428479168405
1.71,139.52264947393343,160.01694291974292,65.95448815932268
1.72,141.12281890313085,160.67648780133615,65.68424872110992
1.73,142.7295837811442,161.33333028854724,65.40475459177279
1.74,144.3429170840297,161.98737783446498,65.15706476143552
1.75,145.96279086237433,162.63894848207934,64.94025924296338
1.76,147.58918034719514,163.28835107450897,64.61171857266223
1.77,149.22206385794024,163.93446826023558,64.35300474996087
1.78,150.86140854054258,164.5779983077352,60.03926307798971
1.79,152.50718852361993,165.1783909385151,59.8167516337303
1.8,154.1589724330051,165.7765584548524,59.56923143406406
1.81,155.8167380175536,166.37225076919304,59.32132220788204
1.82,157.48046052524555,166.96546399127186,59.07562980834747
1.83,159.15011516515827,167.55622028935534,58.8417627576987
1.84,160.82567736805183,168.1446379169323,58.58711101269651
1.85,162.50712374722116,168.73050902705927,58.338940977049745
1.86,164.19442883749176,169.31389843682976,58.115585030664406
1.87,165.88756782186005,169.89505428713642,57.831938048545176
1.88,167.5865183647314,170.47337366762187,19.157677692940393
1.89,169.29125210140762,170.66495044455127,19.087930225746916
1.9,170.99790160585314,170.85582974680872,18.99570587455668
1.91,172.70645990332122,171.0457868055543,18.924006664373753
1.92,174.41691777137677,171.23502687219803,18.86645027007297
1.93,176.12926804009876,171.42369137489877,18.785555686932835
1.94,177.84350495384774,171.6115469317681,18.71578743868609
1.95,179.55962042316543,171.79870480615494,18.63253470179447
1.96,181.277607471227,171.9850301531729,18.565402937456227
1.97,182.9974577727587,172.17068418254746,-14.81502761224691
1.98,184.71916461458417,172.022533906425,-14.753163042888486
1.99,186.43938995364843,171.8750022759961,-14.652536247922253
2.0,188.1581399764084,171.7284769135169,-14.607202702355558
2.01,189.87542474554357,171.58240488649332,-14.522099843660259
2.02,191.5912487944085,171.43718388805672,-14.451847690693603
2.03,193.30562063328907,171.29266541114978,-14.39234713042582
2.04,195.01854728740057,171.14874193984554,-14.326585121473506
2.05,196.73003470679902,171.00547608863081,-14.24631796293331
2.06,198.4400894676853,170.86301290900147,-34.5159115012442
2.07,200.14871959677532,170.51785379398902,-34.35700527642999
2.08,201.85389813471522,170.1742837412247,-34.19723847860699
2.09,203.55564097212746,169.83231135643865,-34.05843151026856
2.1,205.25396408569185,169.49172704133596,-33.89546697668247
2.11,206.9488813561052,169.15277237156914,-33.73458426284845
2.12,208.6404090798209,168.81542652894066,-33.585138360946075
2.13,210.3285633451103,168.4795751453312,-33.43956918135972
2.14,212.01335909656362,168.1451794535176,-33.29812018929247
2.15,213.6948108910988,167.8121982516247,-44.33646113639966
2.16,215.37293287361504,167.3688336402607,-44.14962724633673
2.17,217.04662121001766,166.92733736779735,-43.94886794822244
2.18,218.71589458369564,166.48784868831513,-43.768537261763235
2.19,220.38077307057878,166.0501633156975,-43.573439653855296
2.2,222.04127470373575,165.61442891915894,-43.382165113969464
2.21,223.69741899292734,165.18060726801926,-43.18326656652182
2.22,225.34922506560753,164.74877460235405,-43.00646393844017
2.23,226.99671281163106,164.31870996296965,-42.815091315416694
2.24,228.63989991126076,163.8905590498155,-43.31037095218089
2.25,230.2788055017589,163.45745534029368,-43.12900422954889
2.26,231.91338005516184,163.02616529799818,-42.92812153759821
2.27,233.54364170814182,162.59688408262218,-42.77233672333793
2.28,235.16961054896805,162.1691607153888,-42.57173611199198
2.29,236.79130215612193,161.7434433542689,-42.401725569511996
2.3,238.4087365896646,161.31942609857376,-42.20882821349378
2.31,240.02193085065036,160.8973378164388,-42.01678105426842
2.32,241.63090422881476,160.4771700058961,-41.86595203568654
2.33,243.23567592887372,160.05851048553924,-42.12280334324715
2.34,244.8362610337291,159.63728245210677,-45.78029797021644
2.35,246.43263385825017,159.1794794724046,-45.56839424134458
2.36,248.02442865297422,158.72379552999115,-45.352319569937116
2.37,249.61166660827413,158.27027233429177,-45.16351217652521
2.38,251.19436933161705,157.8186372125265,-44.95012919253957
2.39,252.7725557037423,157.3691359206011,-44.72866912809532
2.4,254.34624706294832,156.92184922932015,-44.51593005418581
2.41,255.91546555524152,156.47668992877828,-44.32812900613522
2.42,257.4802324545293,156.03340863871694,-44.13730482315373
2.43,259.0405665409165,155.5920355904854,-43.93539796087392
2.44,260.5964868968213,155.15268161087667,-43.734163346081104
2.45,262.1480137129301,154.71533997741585,-43.52600936269207
2.46,263.69516711270427,154.28007988378894,-43.35004162047554
2.47,265.23796791154217,153.84657946758418,-43.12677039412813
2.48,266.77643370621803,153.4153117636429,-42.95440291082959
2.49,268.31058682385446,152.98576773453462,-42.75178456282859
2.5,269.8404445011998,152.55824988890635,-42.56901403576501
2.51,271.3660270000888,152.1325597485487,-42.36639780658721
2.52,272.8873525975743,151.70889577048283,-42.20240126978368
2.53,274.4044415552791,151.28687175778498,-42.005139797863485
2.54,275.917310272857,150.86682035980635,-41.83403145540948
2.55,277.42597847645504,150.44848004525227,-41.64395820117478
2.56,278.9304632769076,150.03204046324052,-41.446447445516114
2.57,280.43078368154,149.61757598878535,-41.26567913452104
2.58,281.92695944142787,149.20491919744015,-41.09640281129714
2.59,283.41900863340226,148.79395516932718,-40.93232135960447
2.6,284.90694818509553,148.38463195573112,-40.743076052484525
2.61,286.39079450465283,147.97720119520628,-40.573358573866024
2.62,287.87056651660487,147.57146760946762,-40.39279837085077
2.63,289.34628119269956,147.1675396257591,-40.21722236472774
2.64,290.81795658895714,146.76536740211182,-40.05739913867693
2.65,292.28561026297825,146.36479341072504,-39.89100391910927
2.66,293.7492581970855,145.96588337153395,-39.70787744407055
2.67,295.2089170308009,145.56880459709325,-39.5439831835576
2.68,296.6646050767718,145.17336476525767,-39.36803029921433
2.69,298.1163387244244,144.77968446226552,-39.22104398879827
2.7,299.56413556904704,144.38747402237755,-39.043835111886665
2.71,301.0080103092708,143.9970356712587,-38.88684328449202
2.72,302.4479806659834,143.60816723841376,-38.73506746915527
2.73,303.8840623383675,143.2208165637222,-38.566716591012636
2.74,305.31627050400476,142.83514939781207,-38.40870815016715
2.75,306.7446219979829,142.4510623163104,-38.26559427147637
2.76,308.169132621146,142.06840637359565,-38.10021683000354
2.77,309.58981668488195,141.68740420529562,-37.940469838455094
2.78,311.0066907269349,141.30799950691107,-37.78869354889794
2.79,312.419770722004,140.9301125714221,-37.61570331547118
2.8,313.8290718477182,140.5539555382674,-37.48058136679613
2.81,315.23461140310087,140.17914972459943,-37.3246757827108
2.82,316.63640290034687,139.80590296677232,-37.187767367808384
2.83,318.0344619300146,139.43402529309424,-37.01981341267324
2.84,319.4288021829455,139.0638271589675,-36.87385910655077
2.85,320.8194404545352,138.69508856790202,-36.738064485516446
2.86,322.2063913402142,138.32770792304686,-36.583495073480876
2.87,323.5896684194447,137.96187297231205,-36.43472558276061
2.88,324.9692871491678,137.59752571648445,-36.253886906138746
2.89,326.34526240633267,137.23498684742307,-36.15661155392323
2.9,327.71761227480687,136.87342073188384,-36.000636126942894
2.91,329.0863464821257,136.5134143706144,-35.86687932566154
2.92,330.45148062583183,136.1547455773578,-35.72274104333061
2.93,331.8130280816054,135.7975181669245,-35.57308509688918
2.94,333.17100326327466,135.44178731595562,-35.44259947411958
2.95,334.5254211364342,135.08736132121442,-35.32347517680704
2.96,335.8762947496464,134.73412656944635,-35.178634655870106
2.97,337.22363601534084,134.38234022288765,-35.0312248777667
2.98,338.5674594175697,134.03202797410998,-34.89957573818938
2.99,339.9077796973108,133.6830322167281,-34.78157469382704
3.0,341.24461001947805,133.33521646978983,-34.6391987535915
3.01,342.57796218417593,132.9888244822539,-34.48797252999715
3.02,343.9078504289985,132.64394475695394,-34.379954252779505
3.03,345.234289876568,132.30014521442615,-34.24461456972513
3.04,346.55729132871227,131.9576990687289,-34.108765645080084
3.05,347.87686831939953,131.6166114122781,-33.975475007211365
3.06,349.1930344335223,131.276856662206,-33.842728770519926
3.07,350.5058030001444,130.9384293745008,-33.71870608509092
3.08,351.8151872938894,130.6012423136499,-33.59238424125372
3.09,353.1211997170259,130.26531847123735,-33.49063916160666
3.1,354.42385290173826,129.93041207962128,-33.341107956814085
3.11,355.72315702253445,129.59700100005313,-33.217426664038236
3.12,357.019127032535,129.26482673341275,-33.099736891674176
3.13,358.3117752998691,128.933829364496,-32.957518109694206
3.14,359.60111359351407,128.60425418339906,-32.84463909037329
3.15,360.88715613534805,128.27580779249533,-32.73056516157876
3.16,362.169914213273,127.94850214087954,-32.61542381703105
3.17,363.4493992346818,127.62234790270924,-32.50213702417786
3.18,364.72562271370884,127.29732653246745,-32.38041769358971
3.19,365.9985959790335,126.97352235553156,-32.26299461024602
3.2,367.2683312025888,126.65089240942909,-32.1344384529907
3.21,368.5348401266831,126.32954802489918,-32.01919098310365
3.22,369.7981356069321,126.00935611506814,-31.891733037879643
3.23,371.05822916808273,125.69043878468935,-31.800123892167818
3.24,372.3151335559296,125.37243754576767,-31.67906646199799
3.25,373.5688579313873,125.05564688114768,-31.57447999192764
3.26,374.81941440019875,124.73990208122841,-31.439660654348963
3.27,376.06681342101103,124.42550547468491,-31.354269601275277
3.28,377.3110684757579,124.11196277867217,-31.24192647430739
3.29,378.5521881035446,123.7995435139291,-31.121482965763075
